2.907660421242380232e-03,2.833891965471373696e-03,4.343598282498671755e-03,1.056617993522583144e-03,3.104646143387652848e-04,1.092263331194471805e-03,4.492116551407657199e-02,6.322169358551039432e-03,1.246805687860119694e-02,6.120242786355466549e-03
3.001208545964293307e-03,2.991512854905850095e-03,3.639581733854916745e-03,1.072406450262350331e-03,5.879816761024175484e-04,8.949542776585162930e-04,3.078387077741370770e-02,1.413686828035291658e-02,1.152714913756733989e-02,3.346054399729815609e-02
2.944294531437542922e-03,3.184693482823542157e-03,3.131391727063544215e-03,1.082354922520240535e-03,1.491567078501371268e-03,1.207273044964734220e-03,1.175752645499731491e-02,2.430791429315711308e-02,1.054144094194344947e-02,5.656379899680691326e-02
2.648498913965441088e-03,3.168674003821479821e-03,3.007738217403584536e-03,1.085039434661040116e-03,1.885706342465171903e-03,1.338321498089552631e-03,8.534431285990614745e-04,2.915073221862932856e-02,9.521671677908060197e-03,6.713906006111092228e-02
2.337333498437774593e-03,3.009879792487539594e-03,3.066339479786787080e-03,1.082728067931413565e-03,1.195558814567664833e-03,1.248944546698605752e-03,1.162368586441762334e-03,2.786105287705793049e-02,8.493652118011804295e-03,7.155300948983724096e-02
2.078748999046014373e-03,3.269918919547921878e-03,3.042887593922767933e-03,1.075858238672414580e-03,6.302035658496825095e-04,1.231431576524008933e-03,1.421242228456881529e-03,2.614472701433329452e-02,7.472681375384684389e-03,7.419082135771550013e-02
1.775153426961876028e-03,4.070512830052136488e-03,2.918702497825269304e-03,1.063150347757206180e-03,1.183359957292162354e-03,1.312627606213839348e-03,5.801359906902666536e-03,2.481057409796015578e-02,6.464284466234038184e-03,6.879629835463182963e-02
1.320776511883940034e-03,4.540737221270403461e-03,2.797179175055680787e-03,1.044192869800786728e-03,1.863291096242710625e-03,1.372838406761132078e-03,1.702141926124014007e-02,1.840455187999115103e-02,5.475661202780389425e-03,5.161272474985095088e-02
7.475849570866994207e-04,4.041416528554246310e-03,2.684595334201993894e-03,1.019417840881051314e-03,1.470023179038870090e-03,1.388655425977429903e-03,3.642069803729253846e-02,6.764846949265085514e-03,4.515009240933275450e-03,3.108776521019020189e-02
5.390359964727217115e-04,3.210195191254880311e-03,2.538784639926353753e-03,9.888867556361103425e-04,5.621849765873538143e-04,1.372768828597999797e-03,6.111851819621513804e-02,7.918173910907754312e-04,3.585744682910919304e-03,1.838109040405890710e-02
1.627721295302324419e-03,2.916475213385154135e-03,2.376391077432793951e-03,9.522836149994100708e-04,2.467076315732628531e-04,1.344774042770882725e-03,8.092841120211560768e-02,3.523013108129561914e-03,2.686462820161360406e-03,1.546733898453304078e-02
4.205035707440267154e-03,3.037033175674142514e-03,2.210817499990582694e-03,9.094795924264439859e-04,4.680871691443935388e-04,1.380365189764413102e-03,8.498742550378879379e-02,1.548195881218943776e-02,1.813532135191170186e-03,1.630827521571204600e-02
6.375418077534665204e-03,3.008790119411144503e-03,1.995277462662263697e-03,8.605392253411839809e-04,5.653049032801496596e-04,1.444326487071520603e-03,7.247356218770517611e-02,2.305809072927723913e-02,9.610989699287257344e-04,1.432425282830011512e-02
5.593734003301003947e-03,2.763886725795979427e-03,1.740200554929509369e-03,8.054520985544758992e-04,3.887525837048687490e-04,1.312342224006782720e-03,5.155230792852619204e-02,2.031321858808395053e-02,1.198040099609376264e-04,6.145133190855777035e-03
2.356844821260100590e-03,2.545692361397958441e-03,1.556347596821419784e-03,7.441231973732634212e-04,2.017522175197387143e-04,1.030373483643395090e-03,2.889395580618859399e-02,1.379513591553056806e-02,7.230907488432503387e-04,7.917153980884468825e-03
4.063121819643306836e-04,2.394094311969602751e-03,1.410306124860417638e-03,6.764954929845934080e-04,1.860860544943182310e-04,1.137799017302876248e-03,7.309841551117631647e-03,1.197723956337477802e-02,1.582541802049695565e-03,2.478725102409422981e-02
1.660404257741827320e-03,2.197899475413749287e-03,1.061276319675368094e-03,6.025527795478670271e-04,2.783358926785729857e-04,1.800671420427092662e-03,9.011772803588590994e-03,1.106441801171706429e-02,2.475308404426019432e-03,4.166226628888187317e-02
3.199376555978587690e-03,1.938258830469388348e-03,5.756310694670954383e-04,5.222591994651842396e-04,1.709566670640097637e-04,2.183423695807692154e-03,1.603428717759628613e-02,5.885950123564439099e-04,3.420581261362771932e-03,5.799333886420494910e-02
1.543458528639450513e-03,1.668414558867559227e-03,5.158998823587678667e-04,4.355561308002868634e-04,2.460925041530362140e-04,1.549385987657111389e-03,1.467851920823838932e-02,2.300304549823196931e-02,4.439775623203239853e-03,7.211804952896962162e-02
2.127647865991661499e-03,1.399442079086982496e-03,1.006721490435590928e-03,3.423911564736772722e-04,3.258180691570298918e-04,4.614085195546900262e-04,7.725857191333103911e-03,4.011649191770026712e-02,5.554359022900290203e-03,7.784531301983536877e-02
4.031593375485280004e-03,1.108242671489851087e-03,1.179735837954739349e-03,2.427182645150832881e-04,5.876790853164469636e-04,5.479135753680093102e-06,4.488569113882114221e-03,4.097078437205652762e-02,6.784839610038797229e-03,7.069040826098824115e-02
3.632861730317111289e-03,7.910388785609713536e-04,3.954065879513963926e-04,1.364811459665122705e-04,1.735955704952427342e-03,1.875229080019064087e-04,2.059224321776967001e-02,3.618523851661361451e-02,8.153650473270568702e-03,5.776848116962221558e-02
3.874611329554951931e-03,4.602033273916975855e-04,7.109665810638727407e-04,2.361698391731436886e-05,1.627631778444953940e-03,3.670234366642321567e-05,3.497855211009184145e-02,4.362446750959412395e-02,9.685781304869633956e-03,5.389601497488095971e-02
6.344906233541785720e-03,1.192328997444834938e-04,1.268768019335263621e-03,9.592573801842691655e-05,2.791115249736025308e-04,9.053889227376407710e-04,4.266119824847609127e-02,6.405845709626439843e-02,1.140110194471970380e-02,6.579091051345795083e-02
9.852777459553230602e-03,2.360328497606360492e-04,1.396464309701532470e-03,2.221917469958784844e-04,8.126058939389730739e-04,1.400831356116161467e-03,4.319629466557517450e-02,8.287935172274206452e-02,1.331119332615138956e-02,8.642912814403222455e-02
1.340345234765344916e-02,6.059435842980060924e-04,1.660634654820129352e-03,3.552408675990411063e-04,9.299048852600758086e-04,8.305417520928532079e-07,3.638784735277234006e-02,9.294206856441947218e-02,1.543403283223441017e-02,1.062357870427965700e-01
1.731918290641184383e-02,9.876813303802130066e-04,2.141958772463785441e-03,4.951302486907952632e-04,7.459217906822077256e-04,2.283810331535955640e-03,2.104761281766169903e-02,1.011333109265571267e-01,1.779964494190841573e-02,1.221365797771845479e-01
2.137406860311975854e-02,1.380183632235544187e-03,2.593932894097982899e-03,6.418627498672101975e-04,8.312422744308128669e-04,2.612416728688935798e-03,2.973243135361685816e-03,1.091405697083878273e-01,2.041753019492376087e-02,1.315948978224046328e-01
2.409846136075579487e-02,1.783523531454651737e-03,2.954104850176805623e-03,7.954139758651983510e-04,1.031885525351730181e-03,1.690768370404234565e-04,6.145935866372248188e-03,1.039670285084549478e-01,2.326252559001577500e-02,1.266421855463445989e-01
2.441402816902743175e-02,2.197623988618792410e-03,3.345382932430393357e-03,9.558301856890568651e-04,1.196949419697742158e-03,2.738545360264123436e-03,5.436321780864128601e-03,7.906956982964115366e-02,2.634294787059118445e-02,1.042394339668714504e-01
2.294879617281283049e-02,2.623412322857102477e-03,3.841439298321348405e-03,1.123161449778246890e-03,1.369649384179171458e-03,4.030662768367302903e-03,8.026827096537413747e-03,5.157303032340933291e-02,2.973176336917163903e-02,7.755860240294136509e-02
2.110973168539478570e-02,3.061285091586738588e-03,4.372277053026043560e-03,1.297240148270461515e-03,1.361516767836076953e-03,4.138033042082230224e-03,1.925163080467414897e-02,4.348809557592783065e-02,3.342130168149012870e-02,6.606845025233694380e-02
1.911463159284113728e-02,3.508608818478551293e-03,4.816197735699059325e-03,1.477806438512814079e-03,9.495888953427797504e-04,4.405925239887088264e-03,2.650144288239480658e-02,5.638356305618834330e-02,3.725207870182228181e-02,7.684504609916752160e-02
1.592087721445384699e-02,3.964922453916748003e-03,5.235909393909737690e-03,1.664972795555944279e-03,3.786338618870658591e-04,5.150567616147215706e-03,1.942952140329556876e-02,7.819781050607897688e-02,4.122010177431778555e-02,1.020083696374376597e-01
1.138996674548261971e-02,4.437378809047614128e-03,5.881723264234069680e-03,1.858957426901325979e-03,1.779833845378236143e-04,5.895732365118255824e-03,4.987445601064548033e-03,1.021337991362420289e-01,4.564606436294334907e-02,1.286905228660203404e-01
7.056419734724848208e-03,4.928768337029186715e-03,6.678568367080656848e-03,2.059075667627278602e-03,6.087048363962036576e-04,6.325383887963664797e-03,6.118985832835386121e-03,1.224831804292969284e-01,5.055760560634917772e-02,1.445381311692016113e-01
4.066171059313882299e-03,5.425491667970299900e-03,7.057658850492713222e-03,2.264274411799838734e-03,1.434025958983269544e-03,6.637863850233537144e-03,1.406138076180886258e-02,1.253212691119697519e-01,5.515865589227160470e-02,1.408692883604064916e-01
2.189568243149889355e-03,5.923178037686539082e-03,6.893043859040876367e-03,2.475292762640292094e-03,2.125129125997151855e-03,7.352648742205339545e-03,2.207950022719746067e-02,1.045568343208688467e-01,5.820467840100630730e-02,1.202134316007082843e-01
1.190092261751568136e-03,6.452957532758782019e-03,7.062866482190308624e-03,2.693571480873273565e-03,2.376844774210825142e-03,8.407027957682170621e-03,2.474401896508045956e-02,7.682815942958436117e-02,5.763485488259781353e-02,9.341700753846561567e-02
8.986255193452604914e-04,7.027124414201240191e-03,8.220278913583343658e-03,2.916606473806446741e-03,2.387440710087071830e-03,8.429569106189149091e-03,1.446208472616743006e-02,5.977633176789929476e-02,4.945675745400024415e-02,6.133472245116795840e-02
7.350471639936087976e-04,7.581493719653481685e-03,9.710434600928434176e-03,3.140154758556795104e-03,2.479710488164523115e-03,6.138650126907388080e-03,4.608985720680559839e-03,4.833608138808690585e-02,3.037072233397304991e-02,1.533117339405510281e-02
1.517735519703667562e-03,8.089927759963373710e-03,1.062514078886497675e-02,3.368215449771919719e-03,2.679289611792901125e-03,2.632563319520408486e-03,1.740054652556514286e-02,3.367616489228464349e-02,3.898291968231560375e-03,3.365945679172784033e-02
5.258542597460494003e-03,8.690338323809264701e-03,1.111759723253605281e-02,3.608581419512565773e-03,2.848638145380818620e-03,6.152023019865579621e-04,1.310607743927804519e-02,2.846957443401912369e-02,1.909184317663453062e-02,5.067587653601278441e-02
1.105827236608736275e-02,9.443235013929608679e-03,1.183120213142677471e-02,3.851411959180387791e-03,2.970767100229076366e-03,1.130203932348295120e-03,3.538531212546430250e-03,4.913213949154134064e-02,2.906298308396939103e-02,1.630516703362476852e-02
1.517002668537245288e-02,1.005595252625337763e-02,1.276908399932944783e-02,4.078179931173273390e-03,3.121163858551389420e-03,2.983209939826585166e-03,1.727184986317998466e-02,8.818638517692224676e-02,2.587096253486189171e-02,5.141590217896014475e-02
1.672536941188662932e-02,1.039075678841812865e-02,1.351846990897645137e-02,4.307675162587784774e-03,3.307517372617762002e-03,5.268219639919100548e-03,1.884372274446224210e-02,1.250276956055209332e-01,1.691402578264627338e-02,1.233030399351172507e-01
1.855098889222335165e-02,1.107266734458699567e-02,1.414178989797452816e-02,4.578113033432778221e-03,3.467960533123082972e-03,7.887811720768689305e-03,1.378420249563458780e-02,1.488138803535805077e-01,9.201044280284762650e-03,1.809884067184379108e-01
2.111260011605811324e-02,1.243344753663499537e-02,1.485890190272818115e-02,4.848426016851964566e-03,3.599713198796792007e-03,9.667384837091799743e-03,1.178640101388000842e-02,1.540026802369758863e-01,5.366777405219512118e-03,2.057179857808719148e-01
2.101004842019316143e-02,1.307847270430859132e-02,1.477090887032872502e-02,5.033777717383331254e-03,3.787791013482741821e-03,8.975466894699891951e-03,1.359576022824416676e-02,1.316167771410473308e-01,5.063247462202994514e-03,1.769437122019136555e-01
1.722513205302155653e-02,1.167734448285009941e-02,1.243311722593212418e-02,5.217304061226392745e-03,4.031299559088226576e-03,6.559124939605378256e-03,1.496474379184695690e-02,8.429350904150303969e-02,5.240380292611134319e-03,9.922041000390076360e-02
1.383521464736366460e-02,1.003011263089573050e-02,8.614630976087044381e-03,5.582710499652764752e-03,4.168692013710437183e-03,5.082856470103503180e-03,1.535401755660895096e-02,3.594213901433108288e-02,4.695979945003776485e-04,9.227861153247959858e-03
1.404917544206393636e-02,1.108525419743637552e-02,6.469445678638321637e-03,5.964104153963064106e-03,4.199732113566480296e-03,5.389399579565596482e-03,1.417988379354324750e-02,8.094278743230412868e-03,1.023834239843767098e-02,5.948449240261146492e-02
1.595124551208633099e-02,1.404575499124676927e-02,7.351165177888423392e-03,5.919631185130044826e-03,4.459980648311293212e-03,5.531417048970601290e-03,7.439891143495833831e-03,4.173426093541681391e-03,1.835586593049502030e-02,1.047786526864383366e-01
1.655412277301115953e-02,1.541465477907518269e-02,8.701374238500552208e-03,5.538162712944441450e-03,4.963630825303435960e-03,4.151647774373302957e-03,3.703624591512981803e-03,1.825534829526188202e-02,1.557548952767627039e-02,1.416486572516812148e-01
1.556975990322379162e-02,1.447569439227196220e-02,7.890584542754793332e-03,5.441930988806481344e-03,4.953250925916263987e-03,2.867221744521018280e-03,1.027261598720947966e-02,3.465294097365005654e-02,6.565652943271237107e-03,1.764820526045111915e-01
1.356035692280397123e-02,1.382029354823750139e-02,5.958786482248727701e-03,5.768201219101065993e-03,4.123813050225523004e-03,4.312146832672179679e-03,7.691027592685268505e-03,3.683909453240997306e-02,3.801950883640966075e-03,2.031448979991154202e-01
1.114446617980836655e-02,1.525059424594987952e-02,5.775133004862807208e-03,6.163235662208776076e-03,3.766421946590139003e-03,8.841360729460108134e-03,1.332220949384126498e-03,1.755758728521838660e-02,1.300682732273243311e-02,2.132535107164449939e-01
9.915904430589287874e-03,1.769762727857470200e-02,7.730672249085747752e-03,6.469150249872891376e-03,4.922635541156628915e-03,1.363471931442504156e-02,3.755722622828525266e-03,5.381720239435415498e-03,2.984897597720564955e-02,2.092328638196875312e-01
9.024888486964987439e-03,1.751119458551376323e-02,8.328641151724838765e-03,5.981870142652439583e-03,5.720505263630406428e-03,1.458212394062452337e-02,8.640079153359927350e-03,1.868332744162200937e-03,4.307265904401400003e-02,2.109581891267311438e-01
2.830966738190741037e-03,1.028909369507529682e-02,3.203075609149086313e-03,3.068185031350873903e-03,2.864835642828077698e-03,9.396095330236151066e-03,1.314054352414455347e-02,4.273625657179864340e-02,3.611667330416190591e-02,2.351176023174885443e-01
1.234156117158847002e-02,4.333193674093701805e-03,8.011752842802479305e-03,2.531804962967689875e-03,3.879224927999876289e-03,4.667827532297569456e-04,1.279892981800280667e-02,1.131134994324674847e-01,7.366024977076769849e-04,2.650074051429731625e-01
3.103628680658037514e-02,1.982337015992887211e-02,2.028233138247391779e-02,8.107397368472457969e-03,1.070217844883221241e-02,1.088274088937156263e-02,7.616172267764580520e-03,1.788388834691408691e-01,4.457066763909382084e-02,2.650158120421285401e-01
4.292316993235255340e-02,2.811571968397540491e-02,2.769862594130101732e-02,1.054140677191871787e-02,1.385630326142150114e-02,1.794855136562701833e-02,5.157757131897085928e-03,2.193469578967610079e-01,6.911704613695758559e-02,2.256668166800551989e-01
4.305174054034446168e-02,2.746837056396891213e-02,2.900504148810469085e-02,9.938217126884644342e-03,1.317316558090732628e-02,2.016663000992487131e-02,9.042366377457511026e-03,2.298036746438202327e-01,6.914776734889171994e-02,1.673144484735895055e-01
3.507750853211658026e-02,2.230512504968231238e-02,2.768310453114776470e-02,9.430943818039884755e-03,1.085508865271518630e-02,1.873492028931370013e-02,1.172803005822161196e-02,2.122592144132129377e-01,6.957105222711995607e-02,1.056891817058921018e-01
2.515422663471909501e-02,1.640595731834372864e-02,2.673656029593941136e-02,1.116551968610491122e-02,8.269488259895294707e-03,1.566615934528725954e-02,5.798698856145374780e-03,1.727310398126668811e-01,8.225924608369231117e-02,4.230679344245811407e-02
1.576408660311389917e-02,9.767023197451275493e-03,2.472651409957263291e-02,1.333738820588839698e-02,5.172237909683014348e-03,1.150083831490676840e-02,4.180013138325350958e-03,1.237343305186914821e-01,9.017908501493290818e-02,1.937304131838456234e-02
7.518075077793934420e-03,2.338477275484928536e-03,1.862864099036450408e-02,1.255080973396325954e-02,1.348427678640730333e-03,6.074375132699402595e-03,8.815246143364941986e-03,8.250386840250972798e-02,7.920784794573354493e-02,7.267592665956612574e-02
3.649717242576440510e-03,2.903943837498650267e-03,9.971455125575880152e-03,8.776868492067494559e-03,2.253866648099021701e-03,1.262056551068282267e-03,7.621273901198965736e-03,6.387976527447729314e-02,5.789296228887793466e-02,1.170057867415972563e-01
7.302479425522918725e-03,2.723456148843656117e-03,4.640810135558403465e-03,5.702363121403391903e-03,3.979549029828746004e-03,3.379173888108639003e-04,8.721259677190206991e-03,7.159472477637872367e-02,3.780064504484259569e-02,1.524715092447087028e-01
1.623555586976581713e-02,2.650206208322127780e-03,5.672554961588702552e-03,5.750411668729122835e-03,2.609659737199961516e-03,4.129058312391291341e-03,1.824815045735010688e-02,9.643616579297351055e-02,1.888022930690575266e-02,1.688263407553520778e-01
2.513392237770921758e-02,9.920641770740042109e-03,9.653854013301562884e-03,7.115097234005969898e-03,1.339407614913357570e-03,9.971559708447734136e-03,3.413020154450197713e-02,1.249229883964293741e-01,1.457718048281152722e-03,1.529988567566487323e-01
3.123018862471811305e-02,1.554059843461488497e-02,1.142394666954571480e-02,6.686582236845717460e-03,5.245380980500036205e-03,1.474655670787252890e-02,4.798362846918971525e-02,1.477940825681505199e-01,7.971858365065073726e-03,1.080580231031890714e-01
3.520654467582053082e-02,1.836401640238064306e-02,9.487556225213500047e-03,4.081730111093099557e-03,6.659308941654604186e-03,1.749206325170929444e-02,5.177350178665821728e-02,1.615223570835883637e-01,7.816272929128183222e-03,5.098686432619604914e-02
3.923395944770456667e-02,2.027464821552560359e-02,6.000083260039770772e-03,1.460250346623951289e-03,6.095819888417186756e-03,1.903604312226713641e-02,4.482819469462664963e-02,1.658884979575860619e-01,2.589579117718595128e-03,8.275234556776098552e-03
4.411510936171214592e-02,2.276711170533694817e-02,3.573058460153722034e-03,2.691931010280820954e-04,5.579808085230470588e-03,1.975287728238346932e-02,3.486726393815212099e-02,1.591536690025734391e-01,6.009990149310093580e-03,6.804771541507928512e-02
4.691560352195490308e-02,2.400153394528064740e-02,2.999074032625037231e-03,2.777686644997251703e-04,4.840048400580759975e-03,1.838972273222413967e-02,3.119715554643922098e-02,1.400352167090455069e-01,1.690413380213419414e-02,1.225851792029332976e-01
4.485486333279228160e-02,2.247396184360238997e-02,3.506843319611953596e-03,1.317011120017665821e-03,2.183425808419839007e-03,1.436554928460292979e-02,3.698698330149056968e-02,1.201969041598836413e-01,2.539757426260720596e-02,1.705606031167836434e-01
4.127412723571832753e-02,2.092420595655668583e-02,4.390238904675595154e-03,2.365672800618016849e-03,1.198796046802189747e-03,1.015588667589650135e-02,4.742833066220095151e-02,1.199083052755428175e-01,3.004710563517551045e-02,2.188538374744294357e-01
4.147784916851737780e-02,2.216416318054531195e-02,5.549804965151540481e-03,2.265439447191950305e-03,1.905404796706106768e-03,8.372060377667562767e-03,5.357115532194963586e-02,1.385538738080057952e-01,3.297521843143854520e-02,2.577438936881087939e-01
4.385728405909475325e-02,2.417329690260522704e-02,6.950913817384267446e-03,1.237341405574357393e-03,4.080159614056299818e-04,7.385954675886545646e-03,4.892797929580149779e-02,1.479746920032156132e-01,3.019776822977940020e-02,2.592821238589413380e-01
4.193194574051491846e-02,2.318441362836303615e-02,8.547162855703739279e-03,4.574384097254724155e-04,2.289189526675540487e-03,3.512292537448136534e-03,3.552450941551103802e-02,1.281213332929344861e-01,1.624911572789439901e-02,2.156690072952846815e-01
3.355174587033768474e-02,1.840823814279058182e-02,1.015473530319258369e-02,4.174874541518614314e-04,1.615505176672021566e-03,2.975068812551592400e-03,2.328905177916665292e-02,9.029929955932558538e-02,1.682339164167337853e-03,1.529281030561054633e-01
2.238478697609759538e-02,1.135000377898094139e-02,1.106003237509231921e-02,3.310287981927019160e-03,2.533159029615285156e-04,7.539776035513407956e-03,2.048681584867443478e-02,5.673049638527803001e-02,8.913118146229309299e-03,1.028853768459716406e-01
1.196999638563711783e-02,3.776296153463769203e-03,1.064704132120418423e-02,8.182832778942050744e-03,8.378087417999910066e-04,7.392421544920761006e-03,2.482389657563697713e-02,3.590540696687891109e-02,1.179054177798100587e-03,8.052455243450976075e-02
2.749604140481789506e-03,2.325188315037860550e-03,9.142315502789977871e-03,1.162632985391957342e-02,3.293144689566971251e-03,4.792449408350872055e-03,2.639241750451950391e-02,2.209401684437320781e-02,1.345925816008719175e-02,7.872508342399207881e-02
5.986622561498860032e-03,5.727722160197934974e-03,6.962725222746775355e-03,1.101886315144951986e-02,5.499661996565601181e-03,3.117875614939218457e-03,1.891695186951575930e-02,3.899333298443802276e-03,2.624379990167825458e-02,7.293447122462860810e-02
1.439259025326423275e-02,7.411689464787745568e-03,4.315478872901295712e-03,8.095542172073175863e-03,6.081918466671110135e-03,2.286675696485561231e-03,5.916619977691078835e-03,2.531061707896002655e-02,3.156849957245176641e-02,4.598008498020920987e-02
2.173626752308938093e-02,8.522352784323420846e-03,2.330208007238560291e-03,6.315698161266107037e-03,5.678082741997755867e-03,3.223116777330934258e-04,3.647234921793005707e-03,5.515307405025575427e-02,2.523224096217296930e-02,1.105547916604513251e-02
2.590884573164428314e-02,7.587262396256054010e-03,3.062753157789845082e-03,6.604144123555118553e-03,5.758631309647451076e-03,2.584222801038941510e-03,4.155128134809084155e-03,6.563832531675219129e-02,9.413848998815603844e-03,6.738174582042243815e-03
2.518308482241357615e-02,3.275213971775512399e-03,6.401260471108569453e-03,7.274443711616414461e-03,6.482113595305632331e-03,4.088747462544823838e-03,1.414731700304277910e-03,5.637729667848852266e-02,5.668798981491865278e-03,9.234203233618044904e-03
2.214873018623560869e-02,9.652595889921970242e-04,8.043071744103289997e-03,6.249700442990910841e-03,6.098180966410310204e-03,2.539680459705912115e-03,4.217225820548555111e-03,5.293519334298287665e-02,1.373134592431408431e-02,2.452749303309032305e-02
2.199963793702308656e-02,1.227558852583543600e-04,3.730019744499150046e-03,2.517228862106826292e-03,3.197986247285337924e-03,1.475255002888126122e-03,1.698349606819872168e-03,7.190874260963706077e-02,1.951899208089702062e-02,6.341112251912600639e-02
2.525991786404816267e-02,6.104466059130859296e-03,4.718073741673563422e-03,2.909600556779870072e-03,9.885392000673134949e-04,5.378959771465400240e-03,1.421882463922991002e-02,9.950563953505169035e-02,2.771035480752090385e-02,1.005740678388274134e-01
2.782448396970040733e-02,1.117767408240871209e-02,1.111019559783394881e-02,7.403868637365535431e-03,4.068456255321485117e-03,6.805032731258833789e-03,2.729988455685250850e-02,1.194078977101640654e-01,3.532337460796911716e-02,1.132456179314877825e-01
2.829918205321376584e-02,1.161267182172828760e-02,1.210139944795495318e-02,9.046984557786640763e-03,5.359604005508668625e-03,6.464785890743397247e-03,3.690648215713915326e-02,1.348759732400745259e-01,4.134685229591139599e-02,1.109484934334714068e-01
2.741052448563620694e-02,8.210015202767697792e-03,8.999335959290942488e-03,7.822125730012518402e-03,5.297376141950472551e-03,6.608828674617284529e-03,4.072062380105276325e-02,1.441320887753199109e-01,5.048363037375686729e-02,1.082681515625710661e-01
2.220962413666970753e-02,2.828226068914980150e-03,4.103096953386127510e-03,4.814011232768751307e-03,3.805466759990932570e-03,6.196937320195457406e-03,3.563263308158455545e-02,1.287554628827102254e-01,6.016233133401678590e-02,1.031572573184099673e-01
1.102718175095178041e-02,2.436776015976565429e-03,1.839675852378626158e-04,1.958995699609901095e-03,1.646297414431348088e-03,2.066795651572650612e-03,2.046481675184898263e-02,9.230087370152488535e-02,5.803736886761548530e-02,1.028263495995287574e-01
1.056451686618324181e-03,4.343004441167868865e-03,4.585017151052495315e-04,1.524859307323891966e-03,8.909442455475927430e-04,4.321016399898960740e-03,1.195574075468305028e-03,7.353558456989738035e-02,4.015921130351434581e-02,1.312365173254918527e-01
7.042202504775473167e-04,1.359121613641848299e-03,4.691842511652374870e-03,3.754197863740169581e-03,2.080064099159630985e-03,7.061929468471436766e-03,1.191215195833011421e-02,9.434572661598225607e-02,1.825019557414607127e-02,1.892777870457008071e-01
7.652670781058605251e-03,3.960858631245181387e-03,1.157714088909963385e-02,6.334147907730013592e-03,3.640122821722725430e-03,4.148057960692490970e-03,1.586242057112446577e-02,1.278868327569180618e-01,2.710833235387819645e-03,2.410213784226772349e-01
1.221161396890341200e-02,7.450339640460189490e-03,1.433680879231610111e-02,7.398083666632127714e-03,4.522668213220099216e-03,1.522026438447654159e-04,1.889487640773567650e-02,1.353315905530587671e-01,7.956811770182758980e-03,2.511837529577163330e-01
8.867591937435099353e-03,6.111422933264012980e-03,1.060377098209438172e-02,7.015221133346989137e-03,4.452578704962052714e-03,7.706799850173591537e-04,2.787555951606578847e-02,1.036371637115878208e-01,1.640683128387656134e-02,2.112532695310493092e-01
1.811373255851224991e-04,3.720123905031496887e-04,3.441948507166759774e-03,5.526838247183451722e-03,2.888621431018229858e-03,1.057145364827698003e-04,3.636870641961558598e-02,4.676514797477815399e-02,1.921245896460459582e-02,1.388373822679085379e-01
6.609436246653016371e-03,7.390438474825397792e-03,1.430738967867247260e-03,3.315631445795308961e-03,7.142901550915943185e-04,8.066797939499212484e-04,3.213957370323221319e-02,1.137720716065548920e-03,1.446858722098560458e-02,7.711447798926521213e-02
5.002641364233730362e-03,7.965575209300414586e-03,6.778430072530618883e-04,2.008032019409200682e-03,4.654109081164306636e-04,4.718769667223585672e-03,1.435996349580268873e-02,7.758724711952821179e-03,6.093065712333137728e-03,6.590817548040961427e-02
4.706794744268488241e-03,1.384041101035414978e-03,3.683963048587524797e-03,2.937393717679323470e-03,2.578868400622884478e-03,9.951780929716914914e-03,3.075804382995967097e-03,1.944709889542337727e-02,1.640661085363006883e-03,8.866922839011419366e-02
1.467650868499429176e-02,5.412170862191660083e-03,7.353564845366878863e-03,4.892931459451044587e-03,4.459889768432890970e-03,1.451619325085702801e-02,6.632563589619273718e-03,4.146583688265001455e-02,8.434127021144002812e-03,9.072842700421668294e-02
1.832728130647764964e-02,7.961585459623424579e-03,9.284325749199401692e-03,5.727321850891203478e-03,4.452167481777394818e-03,1.839472015872330168e-02,1.442915055740944972e-03,4.314774684878257272e-02,1.775453706152138600e-02,6.283541475591465642e-02
1.806010395146032815e-02,9.616644901489316069e-03,1.187612859007139768e-02,5.245588606960410565e-03,3.627091716137769567e-03,2.261739033668959745e-02,5.134206181530988691e-03,4.633065353835628952e-02,3.361861254432500085e-02,4.778169912358003202e-02
1.998173095682809902e-02,1.406586177559345299e-02,1.648134290874170640e-02,4.709627522914986569e-03,3.331965429483276300e-03,2.600089302774364480e-02,7.747823388409990839e-03,6.728991317296309504e-02,5.477270053499926766e-02,6.039099891276540621e-02
2.396340641170787572e-02,1.907810752997586914e-02,2.164908996398513114e-02,4.643869537606871468e-03,3.568685893114433363e-03,2.515996874677071601e-02,3.199762826585240971e-02,9.866712057834710337e-02,7.463739866713435533e-02,7.006256119568876617e-02
2.488789019542851297e-02,2.092378118931250558e-02,2.554911779429289501e-02,4.615265342564320999e-03,3.702567691149513413e-03,1.881844926819152206e-02,5.072183710375465643e-02,1.308105417113584468e-01,9.111498423106949296e-02,6.481289022283681645e-02
2.166956821717800491e-02,1.967324781044433452e-02,2.765732751287085928e-02,4.363631567674893831e-03,3.215458707557145284e-03,9.486750677425223946e-03,5.299946603746871071e-02,1.573504510847107407e-01,1.093780115429587446e-01,6.317075831137503039e-02
1.883027836616688391e-02,1.713900931793260751e-02,2.767460923974346745e-02,4.088657016414750517e-03,2.210501211092941870e-03,2.759868772951449330e-04,4.342400930343030124e-02,1.628292790372763421e-01,1.272614027846283580e-01,5.773835018952502146e-02
1.980729533772692882e-02,1.404410103988656955e-02,2.461953954314370988e-02,3.957550182514708859e-03,1.648179801977537381e-03,7.056195874925827449e-03,3.491167741458726936e-02,1.330015618990909587e-01,1.274534328232144464e-01,1.318725945023073789e-02
2.352328931410849200e-02,1.158605242760755646e-02,1.847197167901918485e-02,3.866944064116607186e-03,2.147628916746350224e-03,1.108436966068422624e-02,3.519562640413455290e-02,7.980847554916820075e-02,9.750995799910125439e-02,6.559983025053026107e-02
2.748474487965730725e-02,1.172877350167856464e-02,1.204838516528259316e-02,3.645643519718384708e-03,2.800243011892382481e-03,1.092729462243279340e-02,4.159456719964093468e-02,3.826972914704413614e-02,5.108443049035555489e-02,1.203369647229718398e-01
3.066237952933825728e-02,1.433736226254518631e-02,9.135015058754232184e-03,3.375874560428161839e-03,2.554591428790292055e-03,7.289672188826433301e-03,4.637075704563162204e-02,3.261947059262142179e-02,1.523301961692143103e-02,1.152475054990988457e-01
3.242610939645127616e-02,1.704798002366413046e-02,1.006491074903913437e-02,3.321756896694540162e-03,2.147945536790794169e-03,1.308503042116186763e-03,4.455517410406698714e-02,5.272852556735670854e-02,7.717864656377445079e-04,8.237106279339394266e-02
3.055127241085341117e-02,1.739817929054100418e-02,1.034798131751028111e-02,3.099655225250587919e-03,2.684500775920707714e-03,5.858456442865989273e-03,3.752439626364495462e-02,6.522717229436530983e-02,4.252088769743828794e-03,7.310998688786163324e-02
2.200925972328583724e-02,1.290299378205686867e-02,4.599897198429986345e-03,1.195644472708117488e-03,2.827240533188312473e-03,1.049480065150513661e-02,3.064636472784292714e-02,4.155037981217878096e-02,1.775622111449202956e-02,1.000851156422956911e-01
6.648483054629028902e-03,2.556868527472499174e-03,7.724555636169182574e-03,3.345296631631654305e-03,2.344222128290411470e-04,7.441880670070266310e-03,2.799363668247953005e-02,2.053536199356280345e-02,4.841832000442907596e-02,1.376628430207761100e-01
1.013417035812682991e-02,9.358222912748240946e-03,2.057512825948262791e-02,8.448771572290795367e-03,3.991102258925387052e-03,2.709002616960049740e-03,3.025020190682247909e-02,9.114742573101626555e-02,9.002807866058239183e-02,1.495683592293728659e-01
2.035497648170279950e-02,1.559197655635814576e-02,2.663816174807626114e-02,1.006656784909916620e-02,5.631344649259082194e-03,1.182726869213841792e-02,3.623267169466843490e-02,1.280240520306158980e-01,1.259848095225354347e-01,1.134726465728004285e-01
2.016301558306041533e-02,1.366712796909893418e-02,2.422817763134737373e-02,6.689120599581687907e-03,3.042824032701129094e-03,1.338343131608894961e-02,4.246809021926988004e-02,1.122429820070418027e-01,1.443914308281886161e-01,4.237936056248678418e-02
1.244367676554613243e-02,7.104530652393824253e-03,1.695455042362991466e-02,1.198947986936069882e-03,7.490688313744466942e-04,9.077019241415551151e-03,4.261143929803524327e-02,6.159372295564084776e-02,1.466058890455972374e-01,2.392236835767894143e-02
3.366957547437802838e-03,4.606083035585948650e-05,8.778835549348395356e-03,2.512045329264736213e-03,2.465841626150966446e-03,3.819129869792238768e-03,3.320453658771663902e-02,1.276747643552881076e-02,1.378512467232760330e-01,5.858125158190136128e-02
1.480684828889205877e-03,4.858486446606400701e-03,3.106305452454076119e-03,2.957486302756629284e-03,1.922963421663346139e-03,6.108327517855425192e-04,1.972715699812299314e-02,1.222715123313372620e-05,1.202002527074925858e-01,5.985622439639468051e-02
6.650574778416429213e-04,4.133744142767115798e-03,3.318360426458178900e-03,7.614815143873557854e-04,5.149937781680671411e-04,4.189138483798026183e-03,1.105996623347037244e-02,3.462764558120624836e-02,9.876348107506492668e-02,3.106073441378259109e-02
8.033803794869523451e-03,2.571788241355312671e-03,9.087119788690582733e-03,2.649453863877730599e-03,6.357908919474066769e-04,5.544869659287246337e-03,8.237216772544467963e-03,8.852993770387110328e-02,8.046526491822837690e-02,1.349016001848294538e-02
1.590382270485908231e-02,1.009288925920125320e-02,1.485939333446207808e-02,5.405897706616346818e-03,6.956491322780055048e-04,3.544646880420766928e-03,4.612487912981207312e-03,1.156039427530012598e-01,6.382457629331365900e-02,3.610807930714853703e-02
2.198348214259607941e-02,1.307371544673142233e-02,1.593730731961070374e-02,6.195733475053884394e-03,2.776378923667286456e-04,1.583072958191984562e-04,3.496748512499718489e-03,1.031444782898356255e-01,4.355785311773215790e-02,1.546620984078394580e-02
2.843271224121847462e-02,1.277913817066409635e-02,1.351742267242943968e-02,5.426567997691819113e-03,6.369890689408367864e-04,2.574271022381564855e-03,1.232392420412553244e-02,8.066125159225988328e-02,2.392768963808779986e-02,1.673385170237463512e-02
3.627996269055211442e-02,1.362669118112575309e-02,1.120688307139294966e-02,4.283227946875586313e-03,9.063097461906715344e-04,2.488235826200873874e-03,1.585319885887498045e-02,7.021797396679516079e-02,1.441749566944674696e-02,2.091731694671000036e-02
4.056571759607296296e-02,1.499665587125195709e-02,9.731268675149852207e-03,2.990809179122204137e-03,2.799657866222368240e-03,7.545590446850832401e-04,1.128787470442793942e-02,5.781784580302243987e-02,1.544534548539540017e-02,7.226582462097051220e-03
3.617102305777730731e-02,1.299294260788582366e-02,8.017783844078857705e-03,1.206781712820410857e-03,2.463830792906294628e-03,1.237751257193840703e-03,2.091512776088360476e-03,3.015961395950638238e-02,1.861685262263552965e-02,4.937244683496512347e-03
2.680820724400664185e-02,8.911486646902659625e-03,6.823352977231928601e-03,5.391932153751498834e-04,3.253040261040463345e-04,2.056538690262750720e-03,2.702842035805876932e-03,8.775583778071261928e-03,1.702022464669588481e-02,5.773978061538250113e-03
2.099072233869050952e-02,7.902345085155238619e-03,7.453525215144429956e-03,1.277011716971554163e-03,8.813491267984145628e-04,8.620200914289377885e-04,1.840423400627760669e-03,1.788490173934026428e-02,8.954009272244514012e-03,1.229884297429002446e-02
1.994881613504859846e-02,9.388355242019341337e-03,8.198049004210370555e-03,1.049429123079870674e-03,3.732845666375303939e-04,8.172527794611108643e-04,7.454911714748147650e-03,3.998161788194447980e-02,3.798975405364451649e-03,3.153407283135986616e-02
1.739003927025709745e-02,7.121861031576992920e-03,5.818960901890582807e-03,7.194325128598721844e-04,3.195138856194946250e-04,5.025985882751218001e-04,2.568676858625580130e-03,3.568891636878645385e-02,1.735907762257535639e-02,1.191753110922601396e-02
1.019886917614176366e-02,5.328757662854748892e-04,1.594046248734365574e-04,7.013373989803262185e-04,3.994985344292326687e-04,6.102760270684270613e-03,7.904970326231792327e-03,4.908083304004932923e-03,2.836732921147945563e-02,5.332811379829972137e-02
1.874278711414876283e-03,7.797629395956366151e-03,5.654789610278383727e-03,7.566095883078697518e-04,2.139240638841053831e-04,1.208723130096826456e-02,4.132394103485590928e-03,5.364905358030695737e-02,3.738527873618532199e-02,1.267805871840629317e-01
3.834453792008377104e-03,9.858810386487422764e-03,8.919706021011790734e-03,6.724921629068805968e-04,1.937383349906624279e-04,1.261641273218605530e-02,2.272390273808437902e-02,7.607523028802005982e-02,4.947010562426680524e-02,1.575734014678370210e-01
6.946047930174628626e-03,8.139768944046494106e-03,8.891731178832617058e-03,5.230900543546418077e-04,6.142067986195529289e-04,6.427735511044215151e-03,5.519837939961805967e-02,5.956784815688030005e-02,6.941496427521104406e-02,1.179338174869707379e-01
9.373763153116530106e-03,6.532594882313654504e-03,6.059343672095818256e-03,4.630985337033981567e-04,2.589947212399797615e-04,1.353418097058655496e-03,6.724819559065049746e-02,2.087832832514417009e-02,9.251066364594671965e-02,3.083643706498052917e-02
1.248081572303555084e-02,6.605688659665069282e-03,2.260359373537924529e-03,5.235954017911126053e-04,6.682885849768348306e-04,4.546576353937493119e-03,5.270099284066475515e-02,9.092576102981701075e-03,1.020403398381127397e-01,4.290908097223824352e-02
1.638575504331633154e-02,7.212631530141196297e-03,3.914462634225200632e-05,5.171536493255178470e-04,8.354585836443978626e-04,1.914384958112366883e-03,2.866093507491042011e-02,1.442097683532408622e-02,8.476751867787166161e-02,6.690567135113616171e-02
2.081303436128663018e-02,6.975466279225610994e-03,4.526939687658894460e-04,2.877023389862044269e-04,8.390694614933950522e-05,2.909763670421138416e-03,1.223881552041555278e-02,2.889701908363660927e-03,4.988550802100267384e-02,6.115231183444436863e-02
2.651926150883132660e-02,6.603351764203384093e-03,2.910212837506657903e-03,1.658919630581029523e-04,1.149559987635800700e-03,6.296380462594737548e-03,3.934523559733854418e-03,1.506087198890866674e-02,2.317815437718636490e-02,5.524739034962078410e-02
3.343113510418234402e-02,7.546191648118954175e-03,6.283794491847862450e-03,5.461107807880403835e-04,1.703421894977033991e-03,7.361555548053204043e-03,1.516687462835489188e-03,3.286710578651669268e-02,1.918335350350783286e-02,5.344674721684702923e-02
3.661309965136023969e-02,7.900341764013005599e-03,8.100907815979455084e-03,7.392953911646107414e-04,1.062304740403447346e-03,5.595567601971690452e-03,2.596790068967358596e-04,2.988683730687119455e-02,2.633018985335696185e-02,6.772707024699115008e-02
2.956224705784714357e-02,3.490766853034921961e-03,5.473504571376627131e-03,4.709176000017526050e-04,1.948019519749132240e-03,9.867318232383097930e-04,1.473705380493731468e-02,1.554290519558111650e-02,2.268131768921623909e-02,1.230572758788014837e-01
1.409780342321129143e-02,4.997912904062431876e-03,6.339477044184011530e-04,2.488208299585254173e-03,6.688775578112513692e-03,1.237263819441426771e-02,3.283050351568218839e-02,8.358443442811425150e-02,4.194174554491454654e-04,2.013878916100576844e-01
6.746833036159651919e-04,1.085800511948509239e-02,5.386795139474997302e-03,2.985648934928524824e-03,9.615554534739795961e-03,2.356044952653665175e-02,4.052047844073063815e-02,1.213815281735941137e-01,2.898657829212033382e-02,2.393318639357396860e-01
3.960804082080167376e-03,9.620844615508888573e-03,5.741158755719593353e-03,1.275876513972154340e-03,7.930438971822481586e-03,2.854669726599630766e-02,3.933964916010376095e-02,1.050141109363249559e-01,4.938098299396211088e-02,2.013505249342352754e-01
2.911527244197642701e-03,3.665590735252123762e-03,2.702286856273339918e-03,5.518515742684661262e-04,3.109195450462450688e-03,2.597417518198757644e-02,4.069395135677254804e-02,5.989191553717833350e-02,5.401698107987600722e-02,1.104632168973267853e-01
1.400455592923835783e-03,2.180616525261676406e-03,1.502494830274641842e-03,7.524771704446923080e-04,7.829090476051488081e-04,1.909858015101377135e-02,4.467870209576847718e-02,1.864149718322334615e-02,4.603451679612825115e-02,1.127310978128851469e-02
6.157484071471770303e-04,4.871245884457846981e-03,4.667605114524285906e-03,5.864157527835306763e-05,1.411233717299328894e-03,1.231371259689540386e-02,4.232563729046304180e-02,6.916455994997160357e-03,3.123459878383782334e-02,5.588495835058615580e-02
7.771128761074740533e-04,3.730681940985123603e-03,4.789254734410345639e-03,8.265987881733586132e-06,2.108507931344893484e-05,8.328218109387188622e-03,3.402570030704267501e-02,1.592992398599443055e-02,1.537206640860195456e-02,6.466590524616812330e-02
3.330186804796248477e-03,3.425230437007983648e-04,2.217091701996577215e-03,6.143323038366441981e-04,7.821993606155121931e-04,6.418509148082355599e-03,2.788083089230368461e-02,1.045293854051584925e-02,6.636247367691423815e-03,2.430824958802484809e-02
9.001540585274279277e-03,3.840799268177172952e-03,9.382563132797216597e-04,6.335918277691631904e-04,6.170480968335961868e-04,4.043836395228043307e-03,2.473878906689774837e-02,8.188065361512914669e-03,1.299248790061661475e-02,2.983205359032691656e-02
1.723585385110120577e-02,9.681763437965713523e-03,4.446407910573582992e-03,6.005625428770514865e-04,1.268254574362169280e-03,1.823377264762337212e-03,1.986790804942905470e-02,4.411045444564362650e-02,3.219310820970573001e-02,7.847902056857054831e-02
2.535263185856458448e-02,1.629054220337337183e-02,8.583225266590152613e-03,1.787995412172617773e-03,2.814287120990525276e-03,4.085072890113798129e-03,1.323509873231331832e-02,8.983916208189383912e-02,4.790885813363704449e-02,1.163734556938825215e-01
2.778534466988018606e-02,1.821734333447734208e-02,1.025621512037574665e-02,1.420049836892259753e-03,2.852207401976219938e-03,1.226520167685514126e-02,7.417167879119468746e-03,1.137101444092142033e-01,4.225550104618885222e-02,1.207319346420864387e-01
2.217910349527292893e-02,1.284374618927340388e-02,6.708741880447187216e-03,3.233806890338144992e-04,6.826842758494687264e-04,2.116838583322420628e-02,2.281731758277050909e-03,9.528894358182282698e-02,1.489428578543136594e-02,7.422410295076183051e-02
1.480423870827182568e-02,5.655162229420883369e-03,1.084732597078268699e-03,3.051392635954823084e-04,1.281587023144949546e-03,2.415155145711539095e-02,2.922205231860402173e-03,5.543638554188921180e-02,1.292480960648982602e-02,3.453370506708924696e-03
1.224980687960280576e-02,1.967528096645218376e-03,2.005806503157988967e-03,8.703391285735631762e-04,1.403537669932510782e-03,1.934801218684792032e-02,8.939127491501960496e-03,2.077562738941993517e-02,1.833056646822274136e-02,5.298599672422517337e-02
1.170378240498088501e-02,1.957995464676161399e-04,3.293097427271581001e-03,2.884902875005236297e-04,7.839477089086698382e-04,9.798541196518358032e-03,1.750803506894509434e-02,1.195409301289709729e-02,8.736037828923825729e-04,9.220598874495462838e-02
8.374835356768566691e-03,3.223270832053856672e-03,5.023309595359903845e-03,7.118585944090046564e-04,7.155870807859718297e-04,4.949358420609889205e-04,2.618664886473507855e-02,4.529019504066780777e-02,1.858940990814052230e-02,1.234540517461797382e-01
6.693930580193660322e-03,3.472727284303752521e-03,4.626657568225268219e-03,1.403221040240519482e-04,9.773303051041552607e-04,4.355026890323661706e-03,2.702399507081312824e-02,5.332429387142066657e-02,2.193371615792554311e-02,1.297745185126416290e-01
1.326496631684208685e-02,1.748397130113811060e-03,7.701142900686612763e-04,2.363940509197623441e-03,1.029559269454477163e-03,4.226646711725647737e-03,1.740172659921416717e-02,2.248990266212232136e-02,8.825498748831891657e-03,9.836568986616915644e-02
2.332006303038225425e-02,7.145106130315778160e-03,7.095372844227258377e-03,2.979923440233854352e-03,9.438145338240184774e-04,2.592298548625974770e-03,5.019470281533945297e-03,1.300528039829011717e-02,1.119666944746151166e-02,6.069255102073967817e-02
2.524773018071769723e-02,6.132727438009371972e-03,7.473487383557547714e-03,1.180776009473589799e-03,8.906644705958862568e-04,2.536447183457567547e-03,3.807900382552416307e-03,1.335079181275618081e-02,3.094014222204523670e-02,5.578477642033695394e-02
1.658216449283605315e-02,2.629196364282017731e-04,1.485019880823149410e-03,6.375689207419684866e-04,8.674378495805235359e-04,3.616067668244420021e-03,1.131930249574936848e-02,1.489794006199169490e-02,4.651222653455996253e-02,7.517169673564728927e-02
6.300351597806338327e-03,3.865713429606738860e-03,4.998247437653983299e-03,7.948036854820901033e-04,9.693835424871139177e-04,4.541950643794588280e-03,1.864250329276397403e-02,3.894085923122106441e-02,5.421411102145360511e-02,8.659016390083905390e-02
1.423891360361534929e-03,3.931119256619857588e-03,7.708499740306864155e-03,2.220284221484243267e-04,1.150704369901521095e-03,5.982487977852014513e-03,1.965523926910355337e-02,4.980100311596961926e-02,5.368101171887097733e-02,9.154184391866475312e-02
8.777849319152460864e-04,2.942733607611460606e-03,7.516353990306525075e-03,1.393931859267243730e-04,9.481608132431906463e-04,8.699556697176190692e-03,1.054481260091943810e-02,6.382973347839537848e-02,5.196891443368271968e-02,1.137888433934062943e-01
5.823722735232215314e-03,3.101325322411341810e-03,6.890031807402705911e-03,3.793653407628861133e-04,2.189867746514201656e-04,1.158860546097730850e-02,2.538779001347682938e-03,8.685146419952835539e-02,5.673665938228925759e-02,1.434246743506218669e-01
1.230713749866322974e-02,3.360061325479070035e-03,6.583295404127221563e-03,4.039176289234182836e-04,2.811849012245926441e-04,1.334752936017117621e-02,1.139677407981343552e-02,1.051957430981189795e-01,6.355618028067792913e-02,1.410088497778535510e-01
1.630824257898652596e-02,2.800197345579721452e-03,6.430372776213453927e-03,2.757635627408673551e-04,1.124976129969619104e-04,1.423242014720130059e-02,1.653080227245422307e-02,1.142283588599508348e-01,5.823044586719835353e-02,9.917597267698588515e-02
1.813637453239461128e-02,2.703304850169006065e-03,6.509984814530589588e-03,2.458600738483164940e-04,9.601796633853681463e-04,1.496857230887004356e-02,2.342174081815269482e-02,1.290197610343189749e-01,3.608078613867132106e-02,5.579309628286034661e-02
1.977009985850483251e-02,3.671651595038034205e-03,6.039836275274823585e-03,2.886374314924990744e-04,1.353062524030737134e-03,1.515926679706924851e-02,3.064705520707443689e-02,1.501050978852396800e-01,1.062241091611173735e-02,3.559958978388460399e-02
1.823330625907370814e-02,3.249461929389722229e-03,3.376797674958912938e-03,2.867945076183077316e-04,9.703601980608270432e-04,1.385965145411428324e-02,3.074458824679226696e-02,1.440819334078357050e-01,2.658805810800407045e-03,2.047194249349190698e-02
9.467403008604657888e-03,3.352838922929838802e-04,1.111248739870754300e-03,2.512442097434778709e-04,1.991173414813348112e-04,1.119888134495156638e-02,2.289088317541544335e-02,8.960044952846027422e-02,3.443009484078072679e-03,6.296833434227900109e-03
2.842571968222867666e-03,3.863076385495978898e-03,4.508042309049900553e-03,2.373868864504541311e-04,3.303151714737729227e-04,8.313847259991544864e-03,1.386039202073299434e-02,2.050447016094721769e-02,1.702716774466596708e-03,2.715510909775897125e-02
1.042168295700425518e-02,3.039512728738324749e-03,5.589378823453720890e-03,2.410933020190226151e-04,3.618782866599372632e-04,5.756209541468706656e-03,5.252084548949261661e-03,1.707797517018792843e-02,3.038706292375732958e-03,2.535395367081897181e-02
1.112499081010841738e-02,8.616108244691607614e-04,6.607328867533049724e-03,2.366247476719193343e-04,2.877343269201028527e-04,3.264873432825388978e-03,7.882656838183833142e-03,2.875880648824987937e-02,4.880835800004217420e-03,1.755326433668351685e-02
9.032169126176723198e-03,3.138708695309695706e-03,8.817134047989817758e-03,2.257947626466354056e-04,4.624581613913410563e-04,1.188458894450174176e-03,2.419737285647118735e-02,4.892242055274156898e-02,1.246051595623905855e-03,2.529943911821035812e-02
6.503357435225942500e-03,2.580090874476467962e-03,9.824637664707615986e-03,2.208089300971781670e-04,4.716963023859019810e-04,5.341517315751601134e-04,3.436005605652672074e-02,7.892956047368605843e-02,1.321828661016635591e-02,4.289820526755768609e-02
3.285723091306004366e-03,1.654584643808619873e-03,7.391609982221493749e-03,2.210319926144894964e-04,2.070680868425011029e-04,1.359080538559552347e-03,3.344884295344138780e-02,9.423737549524047186e-02,3.738888278785577196e-02,5.381869735135012128e-02
1.132014324785772042e-04,1.729319798080949412e-03,2.691717190141384997e-03,2.207375111444304767e-04,1.048432096570619740e-03,2.588431917932843863e-03,2.503394584382251029e-02,8.888653866799453573e-02,5.898278687420079741e-02,4.999466563601859953e-02
2.434022236572601448e-03,1.977481997427542586e-03,1.407096231283465511e-03,2.200813937846010464e-04,9.640596523917016082e-04,3.696471074705560533e-03,1.442497398081219601e-02,7.427359027215413301e-02,6.448151886595782090e-02,2.512121554221381781e-02
5.094209000185430380e-03,1.772261319430373881e-03,3.114344635908938581e-03,2.216091308372855032e-04,1.145760380956162430e-05,5.451538111006436378e-03,6.303838176666314366e-03,5.779640183746181242e-02,5.589949578033924504e-02,1.470170807452134826e-02
6.882791315415641605e-03,1.481249000871618770e-03,2.692247688844563031e-03,2.250784383998251793e-04,5.864893158669876646e-04,8.330430556848204479e-03,5.557378251380409515e-03,4.857378540436611825e-02,4.692843288059700413e-02,3.236568541275054028e-02
5.094816737704861015e-03,1.401772554049990696e-03,1.877346009768966024e-03,2.290367407752245076e-04,7.661410855348008359e-05,1.051526650876345899e-02,1.249678367706815590e-02,5.738307261792396224e-02,4.205643616134228241e-02,3.008859182214215083e-03
1.747102623159317927e-04,1.366974222757057125e-03,2.029019504689654613e-03,2.332714788754115028e-04,7.015434217036030286e-04,9.021758534391651971e-03,1.967590484468122528e-02,7.378436359445814108e-02,3.349611386478626440e-02,6.108580515058759791e-02
3.387878160722816983e-03,1.236846621889229128e-03,2.802424773542017307e-03,2.381094664260155610e-04,8.516191804607745443e-04,3.992880759943096165e-03,1.873181775802351332e-02,6.966437585461604520e-02,1.843030415750503137e-02,7.830895480430752342e-02
2.459799311557080842e-03,1.088913436068752018e-03,3.066988265955914068e-03,2.432701558370356791e-04,5.810199454227405304e-04,1.906950161978645045e-04,8.068551708212162721e-03,3.789944200705167021e-02,3.437991572645424619e-03,3.972066244819380532e-02
1.383688736048245245e-03,9.907444531098521558e-04,2.473930731258161715e-03,2.481897492468163415e-04,4.653155640539798467e-04,3.858353226952550199e-04,8.179039839354921432e-03,5.514166530340256986e-03,7.520589773969521552e-03,8.013675333807770973e-03
4.975393784540113259e-03,9.078628276942592168e-04,1.622775097130953800e-03,2.525727793276453929e-04,5.302802963622341766e-04,1.183616121790756915e-03,2.302138870443054888e-02,1.919028044301122589e-03,1.503683060772541789e-02,2.503284790434577578e-02
7.526781618327857415e-03,8.091103400426162811e-04,1.138946174565200024e-03,2.562581002482669209e-04,5.309605365889643680e-04,9.257475598610958364e-04,2.638016489933107597e-02,8.703329694482925261e-03,1.722611845028204983e-02,2.133246111454419058e-02
9.644036782701460864e-03,7.110368385785936773e-04,9.006337560369146811e-04,2.589700621263356199e-04,4.565012305417454693e-04,1.243780058765079494e-03,1.133290052459547635e-02,1.428945904440924106e-02,1.322355816088013544e-02,2.165553563793313346e-02
1.025304765349288431e-02,6.290888687976918612e-04,2.794893572614409239e-04,2.603891018474074372e-04,4.131588276420978178e-04,3.784813960296023409e-03,1.425727303217414962e-02,8.757718486334942209e-03,8.798245094794538215e-03,2.016606935982574733e-02
7.750892771989006252e-03,5.562141697419772804e-04,9.638784932310355937e-04,2.602795208224021120e-04,3.906571001588629577e-04,6.335403245232542474e-03,3.075484503974466530e-02,3.551379931848603830e-03,9.734334007968158120e-03,4.049510082315934539e-03
3.675320486907669715e-03,4.854455558247225497e-04,2.455386916748421040e-03,2.584676577130026764e-04,3.554076857475623797e-04,7.912774988686826008e-03,2.615993440014088497e-02,2.817246330552199574e-03,1.655060805208734276e-02,4.323222729224634325e-02
1.699239524898347835e-03,4.201884936921734554e-04,3.588469293435321995e-03,2.547904763883619369e-04,3.493426158060163045e-04,6.377881235795077215e-03,6.252450442203542555e-03,2.410897658883272981e-03,2.984779002133076953e-02,6.491704770510277334e-02
3.251768406811143299e-03,3.637691139127281065e-04,3.591605213939654071e-03,2.491126486840634512e-04,3.560938574720092301e-04,2.095825311782215008e-03,1.512486009796305125e-02,1.515885322388267620e-02,4.987028708409618066e-02,5.741441804449871900e-02
7.381426730480499833e-03,3.144904523395545995e-04,1.994866104306772508e-03,2.413569446149430942e-04,2.755643532451088431e-04,1.468643860866805737e-03,2.853074161187049707e-02,2.558304971451496115e-02,6.713272164011088727e-02,4.213544747908257171e-02
1.303388479972130733e-02,2.704711152136261756e-04,3.360933464522865462e-04,2.315011780883311692e-04,1.821237142207492925e-04,2.422426605412625507e-03,3.247423560413165156e-02,2.695836220452147228e-02,6.592867446515041085e-02,3.845101332662154148e-02
1.753853064853281088e-02,2.320280197759993959e-04,1.714803411577486489e-03,2.195668640062874459e-04,2.995984673813121332e-04,2.376178259913314019e-03,3.193836650350464351e-02,2.349713439038285043e-02,4.417418569055345245e-02,4.309516577216852828e-02
1.682176231563120572e-02,1.994520816379307640e-04,1.649362259076789022e-03,2.056217121706514057e-04,4.644842136603261193e-04,2.862818501576281423e-03,3.421905901834141478e-02,2.078763719812917049e-02,2.152642711038125004e-02,4.521968688605287195e-02
1.203810161438240850e-02,1.718808260211190052e-04,1.168505151549773620e-03,1.897844182738786382e-04,1.485533722630126780e-04,3.323081854081556645e-03,4.282745087965835612e-02,2.283601003662063395e-02,1.834496271651566215e-02,3.780568378450611944e-02
1.046235715974788358e-02,1.483444919445919569e-04,1.080337893254529162e-03,1.722212631163341030e-04,5.554431704497966122e-04,3.295385009457459623e-03,5.533778787117455550e-02,3.398363560936879663e-02,2.982134434958458660e-02,1.843878672417304659e-02
1.468468362455046909e-02,1.283274645774265435e-04,1.175022627704419001e-03,1.531398504120941501e-04,8.365709578618910633e-04,3.166276699015445773e-03,6.715431802546271978e-02,4.828486673630315307e-02,3.285002025599758485e-02,2.067725196439825636e-03
1.771354440950181908e-02,1.113079499862712311e-04,1.100079575190316718e-03,1.327850561401623262e-04,5.665794051347799965e-04,2.222565175635765611e-03,7.505361696355192236e-02,4.750108158728389568e-02,1.957472429132076086e-02,4.290465818138808687e-03
1.383120853898526029e-02,9.651345403631199512e-05,9.381984408980377022e-04,1.114348908929994723e-04,5.267148532936059791e-04,8.059000006764169494e-04,7.694791142862397737e-02,2.535771414855536934e-02,9.359492728214281049e-03,1.245404162574718920e-02
7.252606116688279682e-03,8.315809067749112922e-05,8.541457114292975820e-04,8.939404269140410070e-05,8.298695558570574372e-04,4.879768910333609315e-03,7.133132188788367245e-02,1.386100377369701812e-04,2.133138652343488650e-02,2.681334173545861163e-02
5.283736590112154269e-03,7.058488419057028901e-05,8.138378184432392684e-04,6.698635153430611191e-05,6.758885042935325283e-04,7.231634643798847371e-03,5.910859853192037411e-02,1.090981307448194923e-02,4.903872054723608376e-02,2.774051368966834463e-02
8.795025129018790161e-03,5.818084746849876707e-05,7.391780154558541018e-04,4.454750491410581792e-05,1.029398998396588655e-04,6.912399583199106690e-03,4.473807087269052185e-02,8.691550630713178877e-03,7.136279125014187430e-02,2.557642475187535056e-02
1.330379340844254667e-02,4.533272923264111568e-05,6.413476821739292266e-04,2.241763338629955074e-05,6.365969177952215648e-04,5.253692928099814793e-03,3.372848475705327725e-02,2.347791297649258219e-03,7.806349267988736684e-02,2.676876845832883850e-02
1.535631348212024815e-02,3.148804712964809209e-05,5.596837993223097857e-04,9.334623736146217452e-07,2.417423975927936533e-04,3.254882205859311976e-03,3.012146670210016225e-02,7.136099955343246266e-03,7.527820402407847666e-02,2.357577934691046026e-02
1.495657155556607415e-02,1.619622914921549090e-05,4.993105128042906642e-04,1.957956188573707222e-05,6.810000440354838829e-04,9.684830211178143290e-04,3.735020703001363379e-02,2.226809104239935513e-02,7.203860187604523013e-02,1.169006736579415902e-02
1.338644993860626034e-02,9.023974302820969400e-07,4.383949896197858486e-04,3.881473289725762400e-05,1.081760744115872405e-03,1.039236547423619044e-03,5.636480393996526339e-02,4.188927612145205981e-02,7.025487599154582596e-02,3.284695915072946906e-03
9.923629164416475010e-03,2.008196053481486724e-05,3.551509102488661766e-04,5.649105332510451650e-05,5.454267926153872834e-04,1.809339453898955834e-03,7.644801216219913875e-02,5.904705968113115738e-02,6.717837439182700043e-02,1.663945400014575290e-02
1.601624261886691429e-03,4.151526583805154828e-05,2.686334725284569023e-04,7.235966189496998856e-05,1.981500335858212090e-04,1.480732906492534477e-03,7.355850548688948332e-02,5.945642638088902143e-02,6.133493022507112424e-02,2.540419415468576220e-02
1.179460854840448311e-02,6.526402215667188693e-05,2.325639872578259490e-04,8.620951543912776813e-05,3.811160918012553196e-04,1.289733344233560649e-03,3.284008605313543105e-02,3.282203157344788791e-02,5.280760496633230688e-02,2.181108072350313939e-02
2.379549442980488302e-02,9.128281444520426895e-05,2.225604880341105303e-04,9.787213343915166972e-05,1.706489906177596663e-04,1.851367757340740281e-03,2.667744019551327936e-02,6.857838498410404743e-03,4.023573792829562151e-02,6.213783153135392888e-04
2.709782387856749311e-02,1.194242880443907351e-04,1.222630244236361870e-04,1.072253122987400139e-04,8.276353315393464999e-05,2.122915187118823432e-03,6.641442311336245852e-02,3.028197925004566179e-02,2.249175821978762618e-02,2.861798368554266392e-02
2.338278637353374823e-02,1.494417454778888322e-04,2.462887976162179033e-05,1.141957468064842883e-04,1.643006067834147286e-04,7.310568423158525942e-04,6.922964350984700532e-02,2.935177224642340765e-02,4.338660662396837293e-03,4.735571622003686976e-02
2.177055014077164050e-02,1.809948670062740616e-04,3.607731408231020908e-05,1.187604870313051589e-04,1.940467646346068166e-04,1.830862021253512346e-03,4.993449677878564891e-02,2.288345385116391517e-02,4.845690277390323104e-03,4.586981586153739132e-02
2.662487748421582187e-02,2.136602003218098509e-04,2.306904603158585118e-04,1.209471845354797578e-04,1.432607870870397030e-04,3.363559003698546150e-03,2.725884064490871270e-02,2.299305276904984457e-02,1.516995584731877650e-03,2.939488213661619817e-02
3.232944245694482216e-02,2.469434763990884830e-04,2.810678532952934437e-05,1.208331281386568575e-04,1.145447214538971724e-04,2.523427130679387845e-03,5.944530961169368008e-03,2.230824404225226557e-02,7.202188275731732578e-03,9.160269169572056447e-03
3.150433832239842025e-02,2.802925775770985267e-04,8.532366784526618361e-04,1.185431005121821750e-04,1.226821371104045886e-04,1.510731025964130226e-04,1.271408256051123793e-02,1.656655599990937075e-02,1.276775647066517166e-02,6.327933802532293220e-03
2.375671075928231443e-02,3.131120842897183731e-04,1.322739125161483684e-03,1.142461076436119096e-04,1.192085773534120826e-04,2.095539102231034831e-03,2.062712988034559949e-02,1.385001229479006918e-02,1.479685761175724215e-02,1.354510816498214268e-02
1.446375586452442082e-02,3.447794650221808915e-04,8.181003785671713078e-04,1.081510596255081188e-04,9.735244613966060061e-05,3.168478577631454133e-03,9.561930032864689871e-03,1.777726244181439610e-02,1.716027310403639081e-02,1.421853467252539097e-02
7.829147265657435129e-03,3.746619329680776680e-04,9.009412212295729019e-05,1.005015104268652901e-04,8.193812969258460735e-05,2.480256561997987771e-03,1.689715316643396539e-02,1.976128614757902829e-02,1.893952378510029358e-02,1.366926668541836379e-02
3.879539351660882696e-03,4.021333497931259358e-04,2.958888416643400539e-05,9.156958777733703266e-05,7.580616537951699173e-05,1.869814363618772053e-04,4.146570115864550710e-02,1.107145263252800292e-02,1.541731132030517773e-02,1.618684977241001410e-02
1.991660049620095491e-03,4.265910288828340404e-04,9.306398988555422214e-05,8.164926180484995198e-05,6.361144784467362922e-05,3.963377918124858824e-03,4.746104906226272097e-02,6.089090432229766862e-03,5.616048159847298812e-03,2.179032257097523670e-02
3.495158043055322274e-03,4.474721237063966628e-04,3.832724559723464815e-05,7.104911602344114307e-05,4.615378632243917842e-05,7.200671276188372154e-03,3.595700898874147622e-02,2.066905428873360914e-02,7.201670593899360540e-03,2.721370758823057207e-02
7.995997391739459795e-03,4.642690731520771790e-04,7.259049093114971736e-05,6.008479749483427903e-05,3.981242833783424102e-05,9.019027702959597423e-03,2.137009748729994107e-02,2.466252419344905356e-02,2.096511242041424611e-02,2.979040212516106262e-02
1.085563268540793228e-02,4.765436748331934569e-04,7.962134542544104963e-04,4.907133206637997287e-05,4.081679326578298696e-05,9.618222706962473861e-03,8.619632565324490681e-03,2.327225078545628115e-02,3.553863945601830332e-02,3.100704437532999375e-02
8.517129290613328560e-03,4.839394962044248961e-04,1.300681046519620984e-03,3.831549194828814470e-05,2.283825906102507385e-05,9.014498545633513327e-03,1.231607241327326366e-02,2.875507830204761250e-02,4.945725923171315208e-02,3.452218998167865677e-02
3.511781699432879079e-03,4.861923390764674073e-04,8.276668945322714034e-04,2.810839806840538264e-05,4.436211082076703226e-06,6.913732820195022701e-03,3.988373341651090670e-02,4.117498365393736093e-02,6.019367621714678818e-02,3.951333463007290769e-02
6.077258146559327053e-04,4.831384703806192019e-04,2.374349275547233675e-07,1.871853629408945871e-05,1.238646288875248794e-05,4.151416478329292628e-03,4.310960179909122114e-02,4.346036134153844627e-02,6.688441892720181636e-02,4.019941209287608563e-02
3.381287802444133891e-04,4.747204017420093240e-04,2.421972832798822300e-04,1.038536302564041000e-05,5.376780606829089314e-05,2.520481319254944293e-03,5.385097544177175691e-03,2.395434328384958567e-02,7.015913252575969872e-02,3.453250881786922022e-02
